Experiment,Baseline_Acc,Ensemble3_Acc,Ensemble6_Acc,Ensemble12_Acc,Seeds
1,0.6934523809523809,0.7023809523809523,0.6875,0.6577380952380952,"[89958, 61469, 94784, 10337, 57063, 81717, 12909, 92379, 5981, 98788, 72260, 7279]"
2,0.6726190476190477,0.6636904761904762,0.6726190476190477,0.6666666666666666,"[32428, 55027, 41450, 25026, 46983, 97463, 64393, 44375, 75806, 88378, 37659, 12607]"
3,0.6875,0.6815476190476191,0.6904761904761905,0.6755952380952381,"[13260, 3056, 9513, 66209, 16354, 20742, 88798, 48824, 83907, 51772, 19438, 88216]"
4,0.6726190476190477,0.6696428571428571,0.6875,0.6845238095238095,"[34273, 47682, 21958, 7206, 80847, 72664, 48372, 90177, 15284, 73083, 72759, 21174]"
5,0.6934523809523809,0.6964285714285714,0.6934523809523809,0.6636904761904762,"[73841, 67303, 32039, 25643, 54364, 44220, 20685, 73152, 40489, 30321, 99549, 98857]"
6,0.6666666666666666,0.6904761904761905,0.6934523809523809,0.6934523809523809,"[16179, 5844, 39572, 66685, 77341, 60196, 51840, 12933, 72030, 51953, 2496, 43613]"
7,0.6785714285714286,0.6636904761904762,0.6755952380952381,0.6726190476190477,"[86809, 61639, 96987, 18135, 7713, 5672, 51723, 93926, 52972, 43304, 27016, 11185]"
8,0.6696428571428571,0.6636904761904762,0.6755952380952381,0.6696428571428571,"[2083, 8452, 36744, 2434, 20262, 85059, 14945, 23266, 3819, 30607, 78095, 83347]"
9,0.7023809523809523,0.6904761904761905,0.7023809523809523,0.6934523809523809,"[23191, 8233, 58630, 64440, 51460, 17586, 78886, 16973, 11243, 74586, 3212, 4172]"
10,0.6726190476190477,0.6755952380952381,0.6875,0.6755952380952381,"[2237, 45983, 2305, 83202, 16856, 67773, 91300, 9314, 78558, 35156, 92929, 7971]"
11,0.6875,0.6845238095238095,0.6934523809523809,0.7083333333333334,"[34358, 84008, 62716, 25025, 46962, 74788, 84253, 20145, 21793, 55644, 20364, 43700]"
12,0.6696428571428571,0.6726190476190477,0.6845238095238095,0.6785714285714286,"[59665, 87288, 88153, 87445, 34912, 71638, 57914, 9112, 20859, 73484, 96056, 48792]"
13,0.6696428571428571,0.6934523809523809,0.6845238095238095,0.6934523809523809,"[80420, 88394, 96220, 86283, 74985, 66478, 31056, 5033, 43977, 51537, 68126, 15721]"
14,0.6785714285714286,0.6815476190476191,0.6964285714285714,0.6934523809523809,"[25327, 2933, 80291, 79653, 9438, 1164, 33870, 74175, 86428, 75650, 9750, 31257]"
15,0.6755952380952381,0.6785714285714286,0.6845238095238095,0.6904761904761905,"[70957, 95203, 10227, 43357, 43997, 69624, 58481, 81187, 96391, 36419, 57935, 89430]"
16,0.6815476190476191,0.6875,0.6785714285714286,0.6845238095238095,"[91504, 23013, 72136, 51350, 17949, 78588, 48250, 25386, 62904, 5823, 47238, 54654]"
17,0.6547619047619048,0.6755952380952381,0.6875,0.6934523809523809,"[64943, 53241, 98440, 19711, 32446, 82195, 53839, 24095, 52244, 62196, 32563, 25797]"
18,0.6785714285714286,0.6785714285714286,0.6815476190476191,0.6934523809523809,"[93313, 58227, 7405, 44723, 39169, 63439, 7622, 26150, 74462, 98841, 48216, 4223]"
19,0.6845238095238095,0.6785714285714286,0.6845238095238095,0.6815476190476191,"[93728, 26671, 76515, 61996, 24377, 93391, 75688, 3158, 43642, 54643, 68515, 52603]"
20,0.6815476190476191,0.6666666666666666,0.6815476190476191,0.6845238095238095,"[25662, 58019, 57085, 99385, 74774, 57695, 28492, 53331, 332, 18617, 58318, 87131]"
21,0.6785714285714286,0.6577380952380952,0.6726190476190477,0.6785714285714286,"[79279, 8435, 61530, 60602, 7581, 80814, 31542, 26922, 8344, 62435, 41618, 20228]"
22,0.6994047619047619,0.6785714285714286,0.6934523809523809,0.6845238095238095,"[89608, 30741, 41016, 31593, 1888, 93788, 73713, 59467, 57963, 76508, 48140, 44556]"
23,0.6815476190476191,0.6845238095238095,0.6845238095238095,0.6904761904761905,"[30885, 3131, 71379, 77370, 55506, 86093, 10972, 15740, 94056, 26941, 28409, 89351]"
24,0.6934523809523809,0.6964285714285714,0.6666666666666666,0.6845238095238095,"[49088, 49611, 19099, 28719, 91311, 41962, 28713, 84153, 73642, 49556, 54198, 22458]"
25,0.6815476190476191,0.6726190476190477,0.6845238095238095,0.6517857142857143,"[27929, 91486, 45308, 6344, 18384, 95225, 78156, 24041, 23956, 27118, 53435, 15912]"
26,0.6815476190476191,0.6785714285714286,0.6875,0.6845238095238095,"[85699, 91805, 88019, 60124, 31288, 58, 60109, 83001, 62801, 66655, 86062, 2682]"
27,0.6815476190476191,0.6666666666666666,0.6726190476190477,0.6875,"[42150, 15964, 94159, 5307, 11846, 95852, 75488, 15793, 37483, 79378, 98648, 26273]"
28,0.6815476190476191,0.6934523809523809,0.6815476190476191,0.6815476190476191,"[6212, 61215, 13593, 17227, 26561, 77259, 73621, 46920, 59638, 72377, 19811, 13790]"
29,0.6934523809523809,0.6845238095238095,0.6934523809523809,0.6875,"[71486, 90769, 5633, 78234, 57955, 22234, 96596, 24291, 95171, 34300, 84292, 28315]"
30,0.6934523809523809,0.6875,0.6904761904761905,0.6815476190476191,"[83183, 26901, 18676, 97456, 34430, 84936, 72896, 63009, 45775, 83924, 16858, 98211]"
31,0.6934523809523809,0.6815476190476191,0.6845238095238095,0.6904761904761905,"[6090, 37224, 50008, 42053, 18033, 972, 38614, 88379, 82262, 51312, 52280, 76299]"
32,0.6904761904761905,0.6815476190476191,0.6696428571428571,0.6904761904761905,"[658, 9049, 25653, 63024, 93498, 77256, 72863, 84939, 20545, 43431, 5079, 49317]"
33,0.6815476190476191,0.6815476190476191,0.6815476190476191,0.6726190476190477,"[18349, 8134, 46717, 73901, 65447, 2599, 25576, 99410, 94454, 49385, 1324, 38965]"
34,0.6815476190476191,0.6755952380952381,0.6904761904761905,0.6815476190476191,"[43810, 13478, 96077, 79830, 99059, 213, 25828, 25348, 9749, 27934, 84004, 87454]"
35,0.6875,0.6904761904761905,0.6696428571428571,0.6666666666666666,"[10882, 53056, 68222, 31899, 50299, 94955, 4365, 90449, 42447, 36083, 21337, 74804]"
36,0.6607142857142857,0.6696428571428571,0.6636904761904762,0.6845238095238095,"[77762, 58458, 6643, 66131, 45684, 23373, 86343, 27446, 1944, 89400, 97766, 50758]"
37,0.6785714285714286,0.6726190476190477,0.6726190476190477,0.6934523809523809,"[37862, 16252, 37953, 23063, 38739, 24033, 44238, 85068, 41199, 81768, 22666, 29199]"
38,0.6845238095238095,0.6755952380952381,0.6845238095238095,0.6666666666666666,"[13844, 66105, 77142, 6382, 92383, 80408, 10864, 95839, 17000, 45719, 61324, 94973]"
39,0.6755952380952381,0.6875,0.6815476190476191,0.6666666666666666,"[19145, 15758, 42132, 7967, 87813, 70415, 6249, 69660, 4375, 24334, 59877, 38303]"
40,0.6785714285714286,0.6875,0.6785714285714286,0.6815476190476191,"[24097, 65337, 58263, 61948, 83431, 73475, 32353, 44459, 15331, 4439, 33282, 83003]"
41,0.6607142857142857,0.6815476190476191,0.6785714285714286,0.6815476190476191,"[21134, 37106, 99168, 65323, 34855, 33532, 98207, 40845, 59042, 75761, 71414, 32984]"
42,0.6815476190476191,0.6755952380952381,0.6845238095238095,0.6845238095238095,"[99949, 95859, 24145, 18093, 51682, 74959, 2605, 37619, 16554, 30015, 12958, 30527]"
43,0.6845238095238095,0.6904761904761905,0.6577380952380952,0.6636904761904762,"[23961, 27498, 45157, 90644, 3595, 18280, 47311, 49464, 68068, 64720, 88975, 48523]"
44,0.6666666666666666,0.6666666666666666,0.6845238095238095,0.6904761904761905,"[5098, 97189, 31192, 47206, 91303, 91103, 56456, 58313, 56497, 4596, 48125, 64395]"
45,0.6964285714285714,0.6845238095238095,0.6755952380952381,0.6666666666666666,"[65826, 77034, 21939, 1414, 23788, 15288, 59824, 56540, 77801, 90765, 67998, 54177]"
46,0.6994047619047619,0.6875,0.6666666666666666,0.6696428571428571,"[50111, 65091, 30008, 51344, 45256, 73687, 7097, 13385, 22608, 786, 9315, 61412]"
47,0.6845238095238095,0.6845238095238095,0.6785714285714286,0.6845238095238095,"[49368, 31317, 61986, 93914, 12490, 60466, 33012, 22722, 62321, 69883, 26152, 41080]"
48,0.6875,0.6755952380952381,0.6934523809523809,0.6994047619047619,"[32827, 3043, 6066, 73673, 95091, 25787, 10723, 30918, 48261, 29143, 61624, 87029]"
49,0.6636904761904762,0.6785714285714286,0.6517857142857143,0.6696428571428571,"[28714, 85297, 10888, 45508, 8752, 74219, 60017, 5742, 40454, 40253, 74712, 43641]"
50,0.6607142857142857,0.6666666666666666,0.6904761904761905,0.7083333333333334,"[87237, 70641, 78599, 9253, 35397, 29967, 32359, 40606, 61527, 80802, 45672, 70654]"
51,0.6964285714285714,0.7023809523809523,0.6845238095238095,0.6785714285714286,"[94360, 56450, 67053, 75311, 4767, 62549, 57224, 73983, 91446, 72926, 48905, 60898]"
52,0.6785714285714286,0.6636904761904762,0.6607142857142857,0.6547619047619048,"[58645, 77843, 60240, 16314, 86733, 63602, 8713, 87071, 28038, 94620, 73016, 2061]"
53,0.6755952380952381,0.6904761904761905,0.6815476190476191,0.7023809523809523,"[36995, 43496, 80528, 76489, 47277, 72486, 43702, 19630, 70891, 56363, 99098, 71133]"
54,0.6785714285714286,0.6488095238095238,0.6636904761904762,0.6696428571428571,"[23360, 61368, 28682, 59025, 40153, 63594, 62164, 86599, 27000, 64881, 11897, 18051]"
55,0.6785714285714286,0.6785714285714286,0.6785714285714286,0.6726190476190477,"[19977, 5016, 50063, 81004, 31000, 73500, 74829, 60363, 57713, 52884, 65421, 73258]"
56,0.6934523809523809,0.6875,0.6964285714285714,0.6755952380952381,"[46127, 81255, 82571, 59935, 13683, 82073, 68916, 71725, 51002, 86505, 59030, 50970]"
57,0.6934523809523809,0.6845238095238095,0.6636904761904762,0.6904761904761905,"[16559, 54895, 10326, 38226, 87919, 67723, 18843, 49496, 40644, 87913, 9484, 58081]"
58,0.6815476190476191,0.6785714285714286,0.6845238095238095,0.6815476190476191,"[87827, 88498, 57540, 21045, 61344, 57454, 45570, 473, 47158, 4636, 36360, 59354]"
59,0.6785714285714286,0.6666666666666666,0.6666666666666666,0.6964285714285714,"[90313, 20537, 41001, 62797, 48110, 17705, 60891, 6340, 6702, 50106, 90374, 3936]"
60,0.6845238095238095,0.7053571428571429,0.6904761904761905,0.6875,"[43964, 51759, 11623, 53111, 27713, 63739, 96621, 92491, 6653, 95124, 8102, 54259]"
61,0.6815476190476191,0.6934523809523809,0.6785714285714286,0.6904761904761905,"[233, 78239, 12449, 67571, 27464, 69951, 69894, 42247, 38665, 93658, 38947, 79342]"
62,0.7023809523809523,0.6964285714285714,0.6964285714285714,0.6845238095238095,"[93988, 73940, 67905, 6682, 25981, 53001, 79442, 63312, 35164, 6262, 83125, 24008]"
63,0.6636904761904762,0.6636904761904762,0.6666666666666666,0.6666666666666666,"[91925, 21819, 66178, 33038, 51425, 12497, 16632, 67836, 80463, 42528, 91766, 3334]"
64,0.6726190476190477,0.6636904761904762,0.6726190476190477,0.6994047619047619,"[53564, 97046, 92783, 73157, 46334, 38341, 6779, 45207, 36787, 98543, 23007, 6984]"
65,0.6875,0.6785714285714286,0.6875,0.6875,"[25184, 38162, 88088, 72417, 42043, 38276, 79775, 26087, 93112, 23619, 68477, 72828]"
66,0.6666666666666666,0.6666666666666666,0.6904761904761905,0.6904761904761905,"[40797, 9343, 4497, 7681, 97788, 48271, 10010, 36762, 96846, 98012, 64712, 33933]"
67,0.6964285714285714,0.6904761904761905,0.6845238095238095,0.6726190476190477,"[20480, 56339, 51327, 55917, 97738, 72509, 91171, 41434, 91108, 24702, 49236, 89441]"
68,0.6547619047619048,0.6726190476190477,0.6666666666666666,0.6726190476190477,"[47347, 21399, 91003, 29186, 3811, 63506, 46720, 73812, 49624, 90375, 39299, 34043]"
69,0.6964285714285714,0.6755952380952381,0.6845238095238095,0.6815476190476191,"[12334, 71633, 81703, 65625, 5539, 85720, 91471, 48883, 39045, 67837, 946, 87559]"
70,0.6636904761904762,0.6696428571428571,0.6755952380952381,0.6726190476190477,"[63283, 37327, 55019, 10907, 18847, 82758, 1136, 78950, 31755, 76381, 59555, 95744]"
71,0.6666666666666666,0.6875,0.6755952380952381,0.6636904761904762,"[71012, 81391, 83739, 23564, 35485, 54294, 24321, 54256, 48002, 59288, 18901, 18986]"
72,0.7023809523809523,0.6845238095238095,0.6785714285714286,0.7083333333333334,"[67123, 5807, 36246, 99895, 11755, 60981, 55229, 85853, 76527, 32433, 29735, 75869]"
73,0.6666666666666666,0.6785714285714286,0.6934523809523809,0.6815476190476191,"[57687, 21166, 56869, 82740, 89251, 91982, 95759, 48347, 43716, 31372, 14114, 79905]"
74,0.6994047619047619,0.6785714285714286,0.6964285714285714,0.6904761904761905,"[10885, 4614, 77423, 14374, 58753, 45073, 38290, 6329, 19135, 44193, 66136, 79850]"
75,0.6964285714285714,0.6755952380952381,0.6726190476190477,0.6875,"[63817, 31266, 86043, 35204, 7328, 67631, 79680, 29362, 14766, 2112, 79668, 24909]"
76,0.6755952380952381,0.6696428571428571,0.7083333333333334,0.7023809523809523,"[71031, 44499, 54323, 97031, 52089, 4386, 25935, 78942, 53698, 33636, 60256, 1147]"
77,0.6964285714285714,0.7083333333333334,0.7023809523809523,0.6845238095238095,"[29049, 38999, 28434, 22072, 71720, 15275, 7257, 43833, 37942, 39779, 44615, 61706]"
78,0.6666666666666666,0.6755952380952381,0.6755952380952381,0.6815476190476191,"[33433, 13140, 45605, 67031, 88177, 58191, 48187, 87074, 26538, 7773, 16026, 23412]"
79,0.7053571428571429,0.6904761904761905,0.6577380952380952,0.6904761904761905,"[91039, 5791, 79576, 26388, 96736, 39010, 91558, 15417, 24730, 52872, 44714, 70632]"
80,0.6815476190476191,0.6845238095238095,0.6726190476190477,0.6815476190476191,"[37061, 41361, 63261, 9688, 48752, 55565, 9179, 56238, 98272, 41822, 24406, 14490]"
81,0.6785714285714286,0.6934523809523809,0.6994047619047619,0.6845238095238095,"[1534, 70217, 89115, 22241, 84145, 69668, 2985, 61962, 86558, 32325, 99448, 66221]"
82,0.6904761904761905,0.6875,0.6904761904761905,0.6994047619047619,"[34258, 95414, 57360, 43949, 55592, 44970, 1717, 43441, 84841, 53170, 86883, 47599]"
83,0.6934523809523809,0.7083333333333334,0.7142857142857143,0.6904761904761905,"[86644, 91868, 5728, 3772, 60236, 41591, 11321, 13309, 72019, 76349, 1923, 26461]"
84,0.6904761904761905,0.6964285714285714,0.6934523809523809,0.7023809523809523,"[28569, 85894, 39328, 42574, 16434, 79572, 54530, 77865, 83530, 5060, 4302, 76962]"
85,0.6845238095238095,0.6845238095238095,0.6904761904761905,0.6845238095238095,"[65168, 95163, 72115, 51664, 95517, 27912, 78580, 5762, 76790, 40380, 49117, 35443]"
86,0.6815476190476191,0.6785714285714286,0.6904761904761905,0.6934523809523809,"[23922, 46616, 29959, 49829, 49965, 6644, 26906, 3541, 99738, 95391, 10867, 48931]"
87,0.6666666666666666,0.7023809523809523,0.6845238095238095,0.7053571428571429,"[22269, 55320, 61761, 25932, 21431, 4141, 50784, 37101, 19078, 56104, 94796, 42905]"
88,0.6904761904761905,0.6845238095238095,0.6964285714285714,0.6904761904761905,"[40172, 74501, 32194, 76270, 92342, 91141, 84329, 23670, 40969, 49133, 73759, 6083]"
89,0.6785714285714286,0.6994047619047619,0.6875,0.6845238095238095,"[41504, 48291, 27778, 10220, 554, 46633, 20613, 49948, 64171, 83401, 9235, 2034]"
90,0.7053571428571429,0.7113095238095238,0.6964285714285714,0.6785714285714286,"[14250, 4364, 42641, 33055, 76679, 58202, 20359, 38638, 66503, 1757, 4036, 14786]"
91,0.6755952380952381,0.6636904761904762,0.6845238095238095,0.6845238095238095,"[51087, 43085, 97535, 56004, 59255, 63079, 3804, 53832, 56197, 67636, 99223, 71949]"
92,0.6934523809523809,0.6815476190476191,0.6934523809523809,0.6875,"[54155, 71625, 248, 30724, 83828, 60219, 61958, 94797, 27509, 47945, 67018, 62015]"
93,0.6904761904761905,0.6785714285714286,0.6875,0.6785714285714286,"[95913, 72844, 87873, 69692, 34535, 10961, 91641, 60386, 556, 20323, 59000, 33619]"
94,0.7053571428571429,0.6666666666666666,0.6636904761904762,0.6696428571428571,"[7725, 22669, 11797, 74262, 52295, 47003, 54815, 4677, 74178, 60003, 65210, 65379]"
95,0.7083333333333334,0.6696428571428571,0.6636904761904762,0.6785714285714286,"[63532, 91777, 94963, 30369, 40556, 64401, 23329, 68496, 62208, 27562, 3392, 9725]"
96,0.6994047619047619,0.6875,0.6696428571428571,0.6875,"[49996, 11887, 40581, 61060, 6207, 68323, 41867, 73205, 16379, 20022, 26928, 32529]"
97,0.6726190476190477,0.6845238095238095,0.6845238095238095,0.6904761904761905,"[81714, 59963, 77754, 70434, 81362, 47066, 18318, 40095, 23384, 38680, 23884, 61936]"
98,0.6815476190476191,0.6666666666666666,0.6636904761904762,0.6696428571428571,"[59975, 50754, 78659, 27874, 28021, 42032, 69185, 40524, 96687, 68428, 24305, 22833]"
99,0.6875,0.7023809523809523,0.6964285714285714,0.6964285714285714,"[54067, 43416, 8217, 83525, 3600, 89685, 59038, 94519, 36425, 17601, 94778, 52596]"
100,0.6755952380952381,0.6845238095238095,0.6785714285714286,0.6755952380952381,"[98029, 44903, 205, 22168, 73410, 2509, 65583, 56431, 55582, 9582, 2602, 49062]"

Average,0.6826785714285715,0.6813392857142857,0.6822619047619047,0.683125
StdDev,0.012170700848261114,0.012093079732564928,0.011739168171369226,0.011764558910820067
