Experiment,Baseline_Acc,Ensemble3_Acc,Ensemble6_Acc,Seeds
1,0.6398809523809523,0.6875,0.6755952380952381,"[54209, 20457, 31151, 90835, 49992, 71266]"
2,0.6755952380952381,0.6904761904761905,0.6845238095238095,"[29374, 60443, 2651, 91006, 33858, 79403]"
3,0.6934523809523809,0.6577380952380952,0.6755952380952381,"[60932, 73469, 11576, 21875, 2407, 86156]"
4,0.6696428571428571,0.6726190476190477,0.6815476190476191,"[63652, 34651, 99736, 72001, 79360, 17069]"
5,0.6875,0.6755952380952381,0.6815476190476191,"[58073, 49603, 18501, 26518, 84166, 85686]"
6,0.6636904761904762,0.6607142857142857,0.6488095238095238,"[28482, 75952, 70535, 39037, 87921, 1567]"
7,0.6994047619047619,0.6607142857142857,0.6875,"[70927, 20178, 57750, 18233, 6396, 71914]"
8,0.6755952380952381,0.6666666666666666,0.6785714285714286,"[7623, 38558, 10166, 31361, 24798, 33808]"
9,0.6904761904761905,0.6934523809523809,0.7053571428571429,"[81352, 33044, 25836, 37641, 1077, 38654]"
10,0.6904761904761905,0.6755952380952381,0.7023809523809523,"[43584, 89846, 69664, 64646, 81484, 81905]"
11,0.6934523809523809,0.6964285714285714,0.7113095238095238,"[18516, 28058, 7624, 53437, 5963, 95992]"
12,0.6845238095238095,0.6755952380952381,0.6785714285714286,"[64544, 58257, 70058, 31012, 51187, 60423]"
13,0.6904761904761905,0.6755952380952381,0.7113095238095238,"[73735, 88372, 10604, 22418, 42478, 36042]"
14,0.6607142857142857,0.6845238095238095,0.6636904761904762,"[30113, 14277, 5121, 30105, 8869, 41150]"
15,0.6636904761904762,0.6755952380952381,0.6666666666666666,"[47083, 16371, 85599, 31698, 13095, 27360]"
16,0.6636904761904762,0.6577380952380952,0.6607142857142857,"[74210, 93832, 90498, 79317, 54783, 21674]"
17,0.6755952380952381,0.6666666666666666,0.6666666666666666,"[94674, 49930, 21443, 371, 52349, 5298]"
18,0.6815476190476191,0.6755952380952381,0.6845238095238095,"[32685, 46018, 32453, 80401, 10561, 68611]"
19,0.6726190476190477,0.6964285714285714,0.6904761904761905,"[44318, 54236, 97820, 40189, 94906, 75915]"
20,0.6696428571428571,0.6845238095238095,0.6755952380952381,"[66624, 74231, 76416, 86484, 34227, 740]"
21,0.6875,0.6964285714285714,0.6666666666666666,"[34605, 68395, 86814, 97708, 96265, 79230]"
22,0.6755952380952381,0.6607142857142857,0.6845238095238095,"[85301, 18882, 70931, 67499, 41440, 15131]"
23,0.6607142857142857,0.6726190476190477,0.6696428571428571,"[28989, 20638, 15202, 44386, 12791, 36860]"
24,0.6726190476190477,0.6607142857142857,0.6726190476190477,"[69681, 1889, 33377, 61766, 3189, 34137]"
25,0.6964285714285714,0.6607142857142857,0.6636904761904762,"[26118, 68228, 27358, 68614, 5720, 92629]"
26,0.6815476190476191,0.6755952380952381,0.6785714285714286,"[42338, 96521, 40285, 93716, 28034, 16420]"
27,0.6666666666666666,0.6815476190476191,0.6904761904761905,"[67378, 57277, 6851, 71665, 82389, 138]"
28,0.6964285714285714,0.6696428571428571,0.6845238095238095,"[77063, 26089, 46403, 81334, 83292, 93352]"
29,0.6607142857142857,0.6636904761904762,0.6636904761904762,"[50013, 46305, 14942, 97198, 43987, 57659]"
30,0.7113095238095238,0.6726190476190477,0.6666666666666666,"[46906, 65773, 77220, 99589, 53202, 87790]"
31,0.6785714285714286,0.6696428571428571,0.6755952380952381,"[72075, 47389, 90471, 30363, 31182, 31593]"
32,0.6755952380952381,0.6875,0.6726190476190477,"[47593, 85705, 31576, 97609, 45110, 35408]"
33,0.6755952380952381,0.6755952380952381,0.6755952380952381,"[6807, 79724, 30276, 83365, 38343, 23245]"
34,0.6726190476190477,0.6755952380952381,0.6845238095238095,"[44839, 25397, 82326, 50647, 62191, 21312]"
35,0.6934523809523809,0.7172619047619048,0.7113095238095238,"[3170, 54891, 75591, 71404, 55253, 7547]"
36,0.6577380952380952,0.6636904761904762,0.6934523809523809,"[6103, 75020, 39888, 13062, 18118, 40348]"
37,0.6785714285714286,0.6666666666666666,0.6726190476190477,"[17771, 26183, 10330, 40108, 49291, 49481]"
38,0.6785714285714286,0.6696428571428571,0.6875,"[39705, 69100, 85968, 67404, 3019, 57983]"
39,0.7113095238095238,0.6904761904761905,0.6845238095238095,"[42628, 79814, 8043, 9602, 48747, 47268]"
40,0.6517857142857143,0.6845238095238095,0.6845238095238095,"[52894, 56824, 1475, 85740, 75672, 25911]"
41,0.6547619047619048,0.6577380952380952,0.6696428571428571,"[35775, 85549, 56634, 78790, 99592, 78165]"
42,0.6755952380952381,0.6904761904761905,0.6964285714285714,"[8107, 21557, 85557, 3068, 90098, 50809]"
43,0.6815476190476191,0.6934523809523809,0.6994047619047619,"[23532, 13989, 2414, 11921, 67064, 51399]"
44,0.6845238095238095,0.6934523809523809,0.6815476190476191,"[61849, 4727, 27959, 49383, 41655, 12679]"
45,0.6875,0.6607142857142857,0.6636904761904762,"[33194, 82711, 85725, 7115, 29575, 35566]"
46,0.6875,0.6726190476190477,0.6934523809523809,"[76299, 31149, 22619, 99839, 70869, 10250]"
47,0.7083333333333334,0.7172619047619048,0.6994047619047619,"[28014, 38701, 5032, 3046, 21631, 14983]"
48,0.6696428571428571,0.6636904761904762,0.6845238095238095,"[52556, 15152, 92349, 54359, 29631, 19783]"
49,0.6547619047619048,0.6726190476190477,0.6815476190476191,"[46831, 68529, 22866, 43753, 28007, 70171]"
50,0.7142857142857143,0.6845238095238095,0.6726190476190477,"[34256, 74577, 94926, 30494, 95591, 73891]"
51,0.6875,0.7053571428571429,0.6815476190476191,"[99689, 28237, 61198, 87406, 35908, 84319]"
52,0.6845238095238095,0.6428571428571429,0.6845238095238095,"[13443, 51631, 962, 23526, 97316, 48736]"
53,0.6428571428571429,0.6875,0.6845238095238095,"[31398, 57924, 34285, 21926, 56218, 78041]"
54,0.6726190476190477,0.6726190476190477,0.7023809523809523,"[92937, 39181, 82444, 41964, 34234, 91387]"
55,0.6577380952380952,0.6636904761904762,0.6726190476190477,"[35508, 55548, 95785, 82310, 27427, 28320]"
56,0.6904761904761905,0.6815476190476191,0.6815476190476191,"[33806, 14667, 25297, 24707, 82644, 20773]"
57,0.6696428571428571,0.6577380952380952,0.6726190476190477,"[18433, 89654, 71203, 69119, 3512, 62532]"
58,0.6875,0.6845238095238095,0.6934523809523809,"[74218, 11215, 29499, 22309, 37981, 63203]"
59,0.6785714285714286,0.7053571428571429,0.7023809523809523,"[52626, 36347, 21425, 20880, 68281, 84213]"
60,0.6726190476190477,0.6666666666666666,0.6577380952380952,"[16001, 33655, 65819, 76643, 23804, 32171]"
61,0.6785714285714286,0.6785714285714286,0.6636904761904762,"[83451, 27133, 49772, 75143, 48296, 601]"
62,0.6964285714285714,0.6636904761904762,0.6845238095238095,"[30252, 35225, 72681, 22307, 90170, 17881]"
63,0.6845238095238095,0.6994047619047619,0.7023809523809523,"[51670, 832, 42686, 93891, 85543, 14196]"
64,0.7053571428571429,0.6845238095238095,0.6755952380952381,"[76095, 28654, 951, 98557, 97226, 16569]"
65,0.6904761904761905,0.7142857142857143,0.7053571428571429,"[53879, 98764, 57925, 60960, 27655, 86752]"
66,0.6517857142857143,0.6845238095238095,0.6636904761904762,"[32976, 59427, 82725, 73433, 22596, 71691]"
67,0.6398809523809523,0.6398809523809523,0.6517857142857143,"[57553, 58691, 84070, 72514, 554, 86513]"
68,0.6726190476190477,0.6726190476190477,0.6636904761904762,"[83115, 20462, 71885, 46992, 87228, 60421]"
69,0.6696428571428571,0.6904761904761905,0.6875,"[74826, 28096, 20581, 31307, 23366, 72261]"
70,0.6815476190476191,0.6755952380952381,0.7053571428571429,"[66831, 40467, 53732, 78559, 80275, 95866]"
71,0.6845238095238095,0.6636904761904762,0.6785714285714286,"[44445, 38551, 78592, 18517, 78647, 24372]"
72,0.6458333333333334,0.6845238095238095,0.6994047619047619,"[90761, 51635, 34657, 51275, 37512, 83164]"
73,0.6845238095238095,0.6755952380952381,0.6696428571428571,"[14215, 15438, 10653, 10381, 6263, 48741]"
74,0.6904761904761905,0.6726190476190477,0.6934523809523809,"[23002, 34520, 1880, 18132, 3935, 14421]"
75,0.6875,0.6755952380952381,0.6696428571428571,"[89824, 72382, 49225, 56570, 97128, 15905]"
76,0.6904761904761905,0.6785714285714286,0.6755952380952381,"[79181, 46933, 40532, 4258, 94148, 39652]"
77,0.6845238095238095,0.6934523809523809,0.7113095238095238,"[97363, 32177, 72191, 34419, 78540, 86668]"
78,0.6815476190476191,0.6875,0.6815476190476191,"[17559, 40905, 47939, 84506, 98487, 71835]"
79,0.6755952380952381,0.6696428571428571,0.6636904761904762,"[8005, 88328, 85259, 84620, 95424, 3561]"
80,0.6875,0.7053571428571429,0.6755952380952381,"[14861, 51668, 16450, 12583, 33230, 65225]"
81,0.6755952380952381,0.6785714285714286,0.6666666666666666,"[460, 99799, 47832, 79772, 21265, 32661]"
82,0.6607142857142857,0.6875,0.7053571428571429,"[82591, 62358, 44050, 44193, 91385, 71160]"
83,0.6666666666666666,0.6785714285714286,0.6577380952380952,"[42511, 53387, 39795, 60508, 19900, 18341]"
84,0.6636904761904762,0.6726190476190477,0.6726190476190477,"[67415, 54852, 5163, 87414, 67688, 96164]"
85,0.6934523809523809,0.7053571428571429,0.6845238095238095,"[25348, 59497, 44772, 68546, 88228, 8744]"
86,0.6726190476190477,0.6696428571428571,0.6845238095238095,"[62636, 27552, 92181, 92873, 78402, 6218]"
87,0.6636904761904762,0.6547619047619048,0.6547619047619048,"[65643, 61182, 84690, 58540, 26427, 97581]"
88,0.6696428571428571,0.6398809523809523,0.6517857142857143,"[5288, 88798, 94063, 97877, 83985, 90617]"
89,0.6815476190476191,0.6815476190476191,0.6875,"[96994, 24910, 85019, 89592, 17685, 20766]"
90,0.6547619047619048,0.6607142857142857,0.6428571428571429,"[34367, 98742, 42380, 48670, 39208, 86949]"
91,0.6696428571428571,0.6785714285714286,0.6458333333333334,"[40215, 80000, 1039, 85378, 91339, 16186]"
92,0.6398809523809523,0.6726190476190477,0.6517857142857143,"[65968, 94417, 54300, 84868, 73815, 86246]"
93,0.6875,0.6875,0.6726190476190477,"[10718, 87072, 46219, 85722, 7525, 44756]"
94,0.6785714285714286,0.6577380952380952,0.6517857142857143,"[94421, 80073, 59833, 40305, 94773, 36172]"
95,0.6607142857142857,0.6845238095238095,0.6666666666666666,"[10305, 76856, 94282, 79581, 74028, 32946]"
96,0.6666666666666666,0.6726190476190477,0.6666666666666666,"[18649, 69969, 96927, 63226, 50590, 53417]"
97,0.6785714285714286,0.6875,0.6845238095238095,"[64005, 15074, 89657, 14540, 72899, 37056]"
98,0.6547619047619048,0.7053571428571429,0.6815476190476191,"[5616, 93229, 39484, 84510, 49418, 89579]"
99,0.6755952380952381,0.7083333333333334,0.7023809523809523,"[41787, 3668, 10122, 24826, 4042, 4991]"
100,0.6934523809523809,0.6755952380952381,0.6815476190476191,"[55403, 82381, 92390, 36109, 84403, 81501]"

Average,0.6767857142857143,0.6778869047619047,0.6792559523809524
StdDev,0.01577690055658893,0.015724953152999623,0.015866560510934536
